# Data taken with Python For the Lab (MC version)
# Scan folder: AOFT_freq_to_wavelength_calibration_1 
# First col: Freq in MHz
# Second col: Wavelength nm 
# Third col: Amplitude (intensity from Spectrometer units with 10us int time) 
# Fourth col: Spectral width in nm 
68.00000 828.75490 1311.00000 1.15574
68.01000 828.67918 1325.66700 1.19476
68.02000 828.64126 1321.66700 1.19355
68.03000 828.47892 1301.66700 1.19655
68.04000 828.40561 1263.00000 1.24362
68.05000 828.29421 1258.33300 1.20307
68.06000 828.20067 1286.66700 1.24732
68.07000 828.04167 1226.33300 1.26772
68.08000 827.93724 1214.33300 1.30873
68.09000 827.75615 1186.66700 1.32207
68.10000 827.66625 1204.66700 1.31143
68.11000 827.48766 1215.00000 1.29531
68.12000 827.37945 1183.33300 1.29782
68.13000 827.27496 1171.33300 1.34037
68.14000 827.06005 1194.33300 1.32830
68.15000 826.93986 1200.00000 1.29911
68.16000 826.80866 1202.00000 1.34759
68.17000 826.68887 1200.00000 1.29672
68.18000 826.56399 1218.33300 1.31975
68.19000 826.40839 1280.33300 1.18643
68.20000 826.26294 1242.00000 1.20452
68.21000 826.15550 1237.33300 1.22851
68.22000 826.07685 1258.66700 1.17506
68.23000 826.03202 1304.00000 1.14808
68.24000 825.86265 1348.66700 1.17132
68.25000 825.74823 1396.33300 1.07507
68.26000 825.70376 1391.00000 1.09846
68.27000 825.64367 1384.66700 1.07519
68.28000 825.51056 1391.33300 1.09923
68.29000 825.45497 1381.66700 1.05875
68.30000 825.30930 1403.33300 1.09527
68.31000 825.27191 1388.33300 1.10069
68.32000 825.22329 1350.66700 1.17564
68.33000 825.11916 1380.66700 1.15291
68.34000 825.03471 1410.00000 1.12710
68.35000 824.84635 1324.33300 1.27725
68.36000 824.72563 1312.33300 1.23149
68.37000 824.60954 1283.00000 1.27829
68.38000 824.43442 1246.33300 1.33830
68.39000 824.37385 1267.33300 1.35633
68.40000 824.18307 1354.33300 1.30293
68.41000 824.12322 1326.33300 1.30652
68.42000 823.99499 1375.33300 1.28891
68.43000 823.80410 1389.00000 1.17153
68.44000 823.76654 1432.33300 1.13019
68.45000 823.68445 1399.33300 1.21227
68.46000 823.56475 1501.66700 1.07914
68.47000 823.46318 1440.66700 1.16231
68.48000 823.36544 1487.00000 1.09644
68.49000 823.26183 1502.66700 1.10147
68.50000 823.19640 1489.00000 1.08013
68.51000 823.16848 1449.33300 1.10405
68.52000 823.07139 1482.66700 1.06707
68.53000 822.90993 1443.33300 1.11613
68.54000 822.81485 1435.33300 1.16524
68.55000 822.69655 1359.66700 1.17890
68.56000 822.55328 1378.00000 1.20624
68.57000 822.46379 1392.66700 1.15757
68.58000 822.39160 1385.33300 1.20697
68.59000 822.27300 1432.33300 1.15602
68.60000 822.15063 1411.66700 1.18972
68.61000 821.99293 1408.33300 1.20370
68.62000 821.95209 1437.00000 1.15115
68.63000 821.83399 1411.66700 1.20830
68.64000 821.72550 1407.33300 1.14691
68.65000 821.62899 1410.33300 1.25195
68.66000 821.56695 1356.00000 1.19377
68.67000 821.44162 1365.00000 1.18413
68.68000 821.27401 1358.33300 1.18488
68.69000 821.12009 1411.33300 1.12901
68.70000 821.04213 1372.00000 1.24137
68.71000 820.95845 1411.00000 1.17188
68.72000 820.80098 1439.66700 1.17846
68.73000 820.75494 1407.00000 1.19680
68.74000 820.59981 1415.00000 1.22745
68.75000 820.57157 1429.00000 1.20839
68.76000 820.40491 1439.66700 1.16214
68.77000 820.29793 1488.00000 1.16247
68.78000 820.16043 1487.33300 1.12208
68.79000 820.11058 1482.33300 1.14611
68.80000 819.97078 1501.33300 1.16748
68.81000 819.93674 1474.66700 1.16022
68.82000 819.83093 1474.66700 1.12942
68.83000 819.72669 1517.00000 1.11291
68.84000 819.61569 1532.33300 1.08886
68.85000 819.55816 1505.66700 1.10684
68.86000 819.48412 1535.33300 1.09740
68.87000 819.31833 1597.33300 1.03562
68.88000 819.23896 1595.66700 1.03839
68.89000 819.18442 1590.33300 1.03458
68.90000 819.07972 1613.00000 1.05368
68.91000 818.97009 1545.33300 1.07186
68.92000 818.89417 1560.66700 1.07756
68.93000 818.83221 1513.33300 1.13438
68.94000 818.71632 1527.66700 1.12190
68.95000 818.66113 1475.66700 1.10176
68.96000 818.55301 1487.66700 1.12283
68.97000 818.38430 1426.00000 1.19275
68.98000 818.31724 1368.66700 1.22599
68.99000 818.22458 1340.33300 1.21407
69.00000 818.09551 1367.66700 1.26903
69.01000 817.93675 1347.00000 1.25973
69.02000 817.85422 1314.33300 1.29750
69.03000 817.76089 1364.00000 1.25215
69.04000 817.60062 1306.66700 1.26796
69.05000 817.47542 1344.00000 1.27867
69.06000 817.31211 1379.66700 1.24500
69.07000 817.26544 1366.00000 1.22564
69.08000 817.06902 1355.00000 1.26865
69.09000 817.02328 1339.33300 1.26529
69.10000 816.84872 1357.33300 1.20958
69.11000 816.69086 1434.33300 1.14148
69.12000 816.56163 1430.33300 1.14885
69.13000 816.56440 1420.33300 1.16366
69.14000 816.46493 1466.00000 1.13225
69.15000 816.26803 1498.00000 1.06151
69.16000 816.23242 1436.66700 1.09030
69.17000 816.12469 1491.66700 1.07134
69.18000 816.08550 1511.00000 1.07086
69.19000 815.95640 1490.00000 1.03878
69.20000 815.93363 1495.00000 1.05890
69.21000 815.84916 1487.00000 1.05499
69.22000 815.75861 1456.66700 1.06909
69.23000 815.65986 1451.66700 1.05780
69.24000 815.64410 1454.00000 1.09665
69.25000 815.51940 1413.33300 1.15772
69.26000 815.43358 1426.33300 1.17189
69.27000 815.32344 1365.33300 1.22828
69.28000 815.14761 1372.00000 1.26286
69.29000 814.92534 1238.00000 1.31327
69.30000 814.89319 1313.66700 1.29813
69.31000 814.70128 1264.66700 1.33999
69.32000 814.54429 1313.33300 1.26695
69.33000 814.43576 1319.33300 1.31015
69.34000 814.19251 1295.66700 1.26019
69.35000 814.09824 1332.66700 1.28029
69.36000 813.99847 1355.00000 1.23028
69.37000 813.89348 1390.00000 1.15690
69.38000 813.74448 1446.66700 1.12465
69.39000 813.72061 1449.00000 1.09985
69.40000 813.57001 1477.66700 1.09706
69.41000 813.45042 1533.00000 1.06806
69.42000 813.36279 1558.33300 1.07115
69.43000 813.28484 1595.66700 1.04711
69.44000 813.18990 1576.00000 1.04409
69.45000 813.13947 1605.33300 1.02090
69.46000 813.02741 1612.66700 1.00526
69.47000 812.98872 1584.33300 0.98603
69.48000 812.91093 1622.66700 0.98671
69.49000 812.83263 1600.33300 0.98667
69.50000 812.79282 1664.00000 0.99120
69.51000 812.66170 1614.00000 1.01243
69.52000 812.64348 1617.33300 1.00071
69.53000 812.55463 1583.33300 1.03960
69.54000 812.44135 1548.66700 1.01069
69.55000 812.41397 1551.00000 1.03978
69.56000 812.31846 1499.33300 1.05415
69.57000 812.26870 1464.33300 1.03670
69.58000 812.12158 1398.66700 1.14664
69.59000 812.05646 1440.00000 1.08431
69.60000 811.92344 1403.66700 1.14680
69.61000 811.88368 1451.00000 1.09289
69.62000 811.83013 1382.66700 1.14720
69.63000 811.61975 1383.66700 1.17163
69.64000 811.58630 1341.66700 1.20364
69.65000 811.41647 1341.00000 1.23251
69.66000 811.24611 1290.33300 1.20911
69.67000 811.15067 1283.66700 1.22817
69.68000 811.09153 1237.33300 1.26278
69.69000 810.96059 1186.33300 1.29772
69.70000 810.77805 1218.33300 1.23262
69.71000 810.68751 1216.66700 1.27643
69.72000 810.56317 1243.66700 1.22011
69.73000 810.41098 1260.33300 1.22962
69.74000 810.26259 1251.33300 1.22459
69.75000 810.10516 1187.66700 1.30390
69.76000 810.03454 1257.66700 1.25239
69.77000 809.93860 1232.00000 1.18867
69.78000 809.77986 1239.66700 1.22217
69.79000 809.69720 1223.33300 1.18431
69.80000 809.60495 1244.33300 1.14717
69.81000 809.47673 1305.33300 1.11705
69.82000 809.34904 1353.66700 1.14099
69.83000 809.22354 1309.33300 1.17223
69.84000 809.14988 1320.33300 1.14072
69.85000 809.03393 1318.00000 1.10809
69.86000 808.96512 1349.33300 1.06769
69.87000 808.82561 1334.33300 1.06354
69.88000 808.76752 1409.66700 1.02268
69.89000 808.75356 1407.33300 1.08888
69.90000 808.57970 1367.00000 1.12269
69.91000 808.46199 1384.66700 1.07499
69.92000 808.44689 1410.00000 1.09653
69.93000 808.31670 1411.00000 1.05119
69.94000 808.18836 1374.33300 1.06711
69.95000 808.17815 1385.00000 1.07630
69.96000 808.06153 1411.00000 1.00934
69.97000 807.96158 1350.33300 1.07925
69.98000 807.87715 1365.33300 1.11750
69.99000 807.82722 1360.66700 1.06871
70.00000 807.74348 1305.33300 1.11224
70.01000 807.51500 1310.00000 1.11732
70.02000 807.47502 1304.66700 1.15353
70.03000 807.37844 1277.66700 1.17673
70.04000 807.21918 1300.33300 1.13507
70.05000 807.12187 1291.00000 1.15995
70.06000 807.00926 1310.00000 1.08829
70.07000 806.85565 1372.33300 1.06415
70.08000 806.74278 1325.00000 1.14186
70.09000 806.68447 1315.66700 1.07127
70.10000 806.60954 1423.66700 1.07912
70.11000 806.47387 1380.00000 1.08152
70.12000 806.42165 1439.00000 1.05144
70.13000 806.28780 1419.66700 1.08768
70.14000 806.28788 1369.33300 1.07330
70.15000 806.13107 1356.33300 1.07424
70.16000 806.05826 1446.33300 1.06101
70.17000 806.05190 1221.33300 1.17313
70.18000 805.94599 1228.66700 1.18821
70.19000 805.87384 1258.66700 1.18077
70.20000 805.71017 1203.33300 1.16723
70.21000 805.53142 1209.33300 1.16282
70.22000 805.40476 1183.00000 1.16971
70.23000 805.36832 1185.33300 1.18834
70.24000 805.22298 1228.00000 1.16663
70.25000 805.07604 1254.66700 1.13798
70.26000 805.04035 1309.33300 1.04169
70.27000 804.93099 1275.66700 1.07990
70.28000 804.73827 1294.33300 1.07375
70.29000 804.71784 1296.00000 1.06895
70.30000 804.62344 1292.00000 1.01212
70.31000 804.51253 1320.33300 1.07339
70.32000 804.37582 1299.00000 1.04816
70.33000 804.38678 1251.66700 1.08737
70.34000 804.27286 1311.33300 1.03575
70.35000 804.19452 1256.33300 1.10693
70.36000 804.01255 1194.66700 1.10622
70.37000 803.96939 1220.33300 1.05411
70.38000 803.86527 1206.33300 1.11484
70.39000 803.83485 1223.33300 1.09530
70.40000 803.65819 1204.33300 1.14367
70.41000 803.56816 1221.00000 1.10671
70.42000 803.46370 1214.66700 1.18459
70.43000 803.36803 1206.00000 1.11334
70.44000 803.28396 1183.33300 1.22571
70.45000 803.07711 1140.33300 1.18744
70.46000 803.00989 1152.66700 1.18998
70.47000 802.86338 1157.00000 1.19761
70.48000 802.75856 1191.33300 1.16534
70.49000 802.65268 1226.33300 1.12619
70.50000 802.52119 1220.33300 1.13443
70.51000 802.46764 1162.66700 1.17082
70.52000 802.34025 1221.66700 1.09314
70.53000 802.17339 1258.33300 1.05325
70.54000 802.13322 1209.33300 1.11706
70.55000 802.03720 1242.66700 1.04957
70.56000 801.95043 1234.66700 1.07623
70.57000 801.89649 1281.33300 1.02806
70.58000 801.76404 1262.33300 1.03018
70.59000 801.69144 1316.00000 1.03002
70.60000 801.55957 1290.00000 1.01448
70.61000 801.59343 1315.00000 1.01068
70.62000 801.49673 1290.00000 1.06205
70.63000 801.34996 1273.66700 1.11589
70.64000 801.22502 1252.33300 1.05767
70.65000 801.13762 1213.00000 1.16104
70.66000 801.05565 1213.66700 1.20412
70.67000 800.96809 1192.66700 1.19355
70.68000 800.76161 1132.33300 1.25973
70.69000 800.68661 1151.00000 1.24532
70.70000 800.59560 1205.33300 1.22167
70.71000 800.46025 1126.00000 1.31632
70.72000 800.33848 1199.33300 1.23122
70.73000 800.16987 1224.00000 1.22639
70.74000 800.09324 1236.66700 1.14340
70.75000 799.91815 1262.66700 1.11605
70.76000 799.86845 1275.66700 1.14024
70.77000 799.76592 1311.00000 1.04275
70.78000 799.73677 1356.00000 1.02307
70.79000 799.60074 1295.33300 1.08460
70.80000 799.52580 1347.00000 1.02919
70.81000 799.41309 1354.66700 1.05387
70.82000 799.33208 1353.33300 1.03172
70.83000 799.25454 1339.66700 1.07364
70.84000 799.14105 1330.00000 1.00327
70.85000 799.06366 1307.66700 1.06409
70.86000 799.06142 1345.00000 1.05635
70.87000 798.87839 1275.33300 1.16939
70.88000 798.71791 1316.00000 1.09673
70.89000 798.63448 1286.66700 1.19023
70.90000 798.55927 1287.00000 1.14918
70.91000 798.46951 1250.66700 1.23514
70.92000 798.30872 1281.33300 1.17664
70.93000 798.18865 1321.00000 1.15412
70.94000 798.04079 1315.66700 1.20329
70.95000 797.99273 1333.66700 1.16024
70.96000 797.82552 1377.66700 1.16690
70.97000 797.72787 1380.33300 1.06152
70.98000 797.66542 1467.33300 1.07779
70.99000 797.52219 1442.33300 1.04688
71.00000 797.39165 1477.33300 1.05828
71.01000 797.33617 1409.33300 0.98775
71.02000 797.31298 1492.00000 1.01650
71.03000 797.15594 1494.33300 1.02562
71.04000 797.06979 1476.00000 1.08250
71.05000 797.00558 1581.00000 1.00153
71.06000 796.91891 1614.00000 0.97650
71.07000 796.84606 1564.66700 1.03648
71.08000 796.77589 1615.33300 0.96203
71.09000 796.68185 1569.66700 1.02910
71.10000 796.63160 1627.66700 1.01908
71.11000 796.50645 1629.33300 0.99753
71.12000 796.48220 1610.33300 0.98594
71.13000 796.35636 1611.00000 0.98780
71.14000 796.25589 1558.00000 1.01723
71.15000 796.23290 1619.66700 0.98431
71.16000 796.17447 1626.33300 0.97980
71.17000 796.04730 1606.33300 0.99735
71.18000 795.95940 1599.33300 0.99907
71.19000 795.90585 1590.66700 1.01532
71.20000 795.82522 1568.33300 1.02300
71.21000 795.69355 1523.00000 1.05075
71.22000 795.66395 1558.33300 1.05117
71.23000 795.48731 1480.66700 1.07340
71.24000 795.45296 1518.00000 1.10408
71.25000 795.37484 1447.66700 1.11746
71.26000 795.18990 1401.33300 1.13076
71.27000 795.09785 1430.66700 1.16389
71.28000 794.98786 1413.00000 1.18881
71.29000 794.78070 1349.33300 1.19796
71.30000 794.67168 1319.00000 1.21058
71.31000 794.54250 1365.00000 1.24679
71.32000 794.37783 1362.00000 1.22479
71.33000 794.28907 1384.00000 1.21439
71.34000 794.14730 1424.00000 1.18248
71.35000 794.00307 1433.66700 1.20153
71.36000 793.86099 1498.33300 1.12236
71.37000 793.80924 1475.00000 1.14013
71.38000 793.62652 1526.66700 1.09698
71.39000 793.63582 1526.33300 1.08316
71.40000 793.52515 1594.00000 1.03941
71.41000 793.38637 1657.33300 0.98334
71.42000 793.31385 1625.33300 1.01887
71.43000 793.27671 1633.33300 1.03507
71.44000 793.16707 1642.00000 1.03629
71.45000 793.09061 1687.66700 1.00897
71.46000 792.95920 1698.00000 1.05449
71.47000 792.92109 1691.66700 1.02863
71.48000 792.81249 1718.33300 1.02477
71.49000 792.71018 1703.00000 1.02549
71.50000 792.62169 1741.00000 0.99094
71.51000 792.57100 1721.33300 1.00860
71.52000 792.50497 1779.33300 0.96345
71.53000 792.40771 1706.33300 1.01496
71.54000 792.31162 1728.00000 0.99123
71.55000 792.23380 1756.66700 0.98449
71.56000 792.14857 1752.00000 0.98564
71.57000 792.05617 1778.00000 0.97722
71.58000 791.96683 1757.66700 1.00803
71.59000 791.87774 1756.33300 1.00324
71.60000 791.81105 1733.66700 1.03612
71.61000 791.72422 1695.66700 1.01721
71.62000 791.64015 1709.33300 1.03346
71.63000 791.52995 1716.00000 1.02239
71.64000 791.48772 1688.00000 1.04604
71.65000 791.33460 1610.00000 1.09955
71.66000 791.27495 1601.33300 1.10324
71.67000 791.14878 1568.66700 1.14474
71.68000 791.02414 1520.33300 1.17013
71.69000 790.91065 1551.00000 1.16596
71.70000 790.73534 1525.66700 1.19431
71.71000 790.66949 1527.66700 1.18178
71.72000 790.50049 1544.00000 1.17013
71.73000 790.35779 1521.33300 1.18053
71.74000 790.27157 1622.33300 1.17560
71.75000 790.17930 1555.33300 1.17246
71.76000 790.01748 1662.66700 1.07912
71.77000 789.87795 1736.33300 1.09962
71.78000 789.75136 1761.00000 1.07071
71.79000 789.69918 1840.66700 1.02164
71.80000 789.62209 1818.00000 1.04324
71.81000 789.49912 1813.33300 0.99799
71.82000 789.47135 1919.33300 0.97980
71.83000 789.34857 1864.33300 0.96521
71.84000 789.30150 1914.33300 0.97777
71.85000 789.21410 1977.33300 0.95097
71.86000 789.15439 1924.66700 0.96265
71.87000 789.03480 1920.66700 0.96999
71.88000 788.97917 1947.66700 0.95792
71.89000 788.94539 1904.00000 0.99608
71.90000 788.83688 1857.66700 1.00724
71.91000 788.76679 1919.33300 0.99227
71.92000 788.67222 1909.66700 0.98264
71.93000 788.60493 1845.00000 0.98178
71.94000 788.54171 1912.00000 0.97173
71.95000 788.42396 1904.66700 1.01488
71.96000 788.36793 1937.33300 1.00772
71.97000 788.29827 1924.00000 1.01022
71.98000 788.19224 1892.66700 1.05909
71.99000 788.07597 1920.00000 1.03656
72.00000 787.96853 1860.00000 1.09713
72.01000 787.84919 1787.66700 1.20586
72.02000 787.71337 1742.66700 1.18339
72.03000 787.56683 1738.66700 1.20134
72.04000 787.46636 1689.33300 1.20912
72.05000 787.25934 1742.66700 1.20118
72.06000 787.12321 1856.66700 1.16550
72.07000 786.95652 1966.33300 1.07412
72.08000 786.84332 2022.33300 1.04655
72.09000 786.77402 2067.66700 1.02706
72.10000 786.68448 2141.33300 0.91850
72.11000 786.62855 2225.66700 0.90235
72.12000 786.57091 2172.00000 0.90309
72.13000 786.50609 2289.33300 0.84165
72.14000 786.44494 2339.66700 0.83947
72.15000 786.38416 2407.66700 0.82905
72.16000 786.33845 2315.33300 0.86498
72.17000 786.30140 2304.00000 0.87941
72.18000 786.23639 2288.00000 0.87007
72.19000 786.17016 2282.00000 0.88668
72.20000 786.12697 2212.33300 0.90633
72.21000 786.02626 2205.00000 0.95500
72.22000 785.95734 2116.00000 0.97811
72.23000 785.86097 2097.66700 1.02109
72.24000 785.76367 2015.00000 1.07408
72.25000 785.69632 2033.33300 1.07869
72.26000 785.52176 1883.33300 1.16768
72.27000 785.44948 1856.00000 1.14612
72.28000 785.27228 1765.33300 1.18136
72.29000 785.13530 1810.66700 1.21014
72.30000 785.00454 1836.66700 1.20479
72.31000 784.88743 1916.33300 1.16687
72.32000 784.77431 1929.00000 1.16171
72.33000 784.59392 2018.00000 1.09109
72.34000 784.47314 1982.00000 1.12528
72.35000 784.38339 2049.33300 1.08126
72.36000 784.30394 2061.00000 1.03867
72.37000 784.22939 2152.00000 1.02692
72.38000 784.12296 2201.66700 0.97907
72.39000 784.02575 2197.00000 0.99847
72.40000 783.96787 2158.00000 1.02130
72.41000 783.87292 2147.33300 0.99192
72.42000 783.79326 2193.00000 1.00325
72.43000 783.72944 2239.66700 0.99572
72.44000 783.63160 2176.66700 1.01592
72.45000 783.54369 2187.33300 1.01101
72.46000 783.46407 2138.66700 1.05828
72.47000 783.35541 2153.00000 1.03919
72.48000 783.31477 2139.00000 1.03526
72.49000 783.17593 2134.33300 1.06904
72.50000 783.06356 2203.66700 1.06108
72.51000 783.01285 2213.66700 1.04986
72.52000 782.93215 2236.00000 1.06133
72.53000 782.79278 2267.00000 1.05608
72.54000 782.73241 2183.66700 1.11514
72.55000 782.61520 2236.33300 1.08513
72.56000 782.50364 2142.00000 1.11968
72.57000 782.39943 2156.66700 1.12229
72.58000 782.30601 2178.00000 1.15491
72.59000 782.18169 2130.33300 1.13638
72.60000 782.09116 2116.33300 1.13350
72.61000 781.95770 2219.33300 1.11340
72.62000 781.85926 2236.33300 1.12149
72.63000 781.71916 2247.33300 1.09492
72.64000 781.60923 2361.00000 1.08664
72.65000 781.52494 2493.33300 1.04770
72.66000 781.41001 2556.00000 1.02615
72.67000 781.31918 2609.33300 1.00266
72.68000 781.25672 2600.00000 1.04243
72.69000 781.15540 2631.33300 1.04433
72.70000 781.04249 2678.66700 1.02635
72.71000 780.92035 2662.00000 1.01832
72.72000 780.85971 2631.66700 1.01520
72.73000 780.74530 2628.66700 1.01327
72.74000 780.65508 2689.66700 0.99589
72.75000 780.56745 2726.00000 1.00466
72.76000 780.47811 2782.66700 0.98741
72.77000 780.38705 2908.00000 0.96544
72.78000 780.31876 2943.33300 0.96279
72.79000 780.23141 3065.66700 0.93980
72.80000 780.12313 3153.33300 0.92025
72.81000 780.04097 3273.66700 0.92017
72.82000 779.96831 3334.33300 0.89545
72.83000 779.92293 3273.33300 0.90255
72.84000 779.86431 3199.00000 0.91893
72.85000 779.78138 3267.33300 0.90680
72.86000 779.72640 3343.00000 0.88085
72.87000 779.64609 3346.33300 0.90878
72.88000 779.57844 3320.66700 0.92423
72.89000 779.50936 3285.00000 0.95068
72.90000 779.43355 3200.66700 0.99461
72.91000 779.28792 3151.00000 1.00304
72.92000 779.22197 3055.33300 1.02992
72.93000 779.08828 2970.66700 1.05293
72.94000 779.00495 2862.33300 1.07100
72.95000 778.89939 2886.66700 1.06537
72.96000 778.77130 2977.66700 1.08331
72.97000 778.67846 2966.33300 1.07841
72.98000 778.58820 3011.33300 1.07372
72.99000 778.47877 3070.00000 1.08311
73.00000 778.39259 3124.66700 1.03622
73.01000 778.28539 3233.66700 1.00638
73.02000 778.21072 3278.33300 1.00209
73.03000 778.11614 3372.00000 0.97799
73.04000 778.04742 3352.00000 0.97529
73.05000 777.97584 3366.00000 0.96665
73.06000 777.87389 3322.00000 0.98436
73.07000 777.80502 3309.00000 0.96992
73.08000 777.73910 3335.33300 0.97848
73.09000 777.66941 3276.66700 0.99435
73.10000 777.59074 3185.33300 1.01695
73.11000 777.47886 3238.00000 1.01851
73.12000 777.41023 3200.33300 1.02630
73.13000 777.31598 3180.00000 1.03539
73.14000 777.18836 3126.33300 1.06389
73.15000 777.08871 3034.66700 1.07657
73.16000 777.00436 3003.33300 1.09217
73.17000 776.87905 3011.33300 1.07544
73.18000 776.78024 3043.66700 1.08145
